# Ne(3P) + OCS interaction potential, (2)^3A' surface, from Proj-EOM-EE-CCSD / d-aug-cc-pVTZ  
# Potential expanded in terms of Legendre polynomials 
# Below are Legendre radial functions from L = 0 to L = 4    
# All data are in atomic units (Bohr / Hartree)
# 
# R       L = 0        L = 1        L = 2        L = 3        L = 4
  5.71    4.462E-02    2.566E-02    1.150E-01    4.819E-02    7.415E-02 
  5.78    4.055E-02    2.319E-02    1.044E-01    4.258E-02    6.629E-02 
  5.86    3.676E-02    2.088E-02    9.440E-02    3.744E-02    5.899E-02 
  5.93    3.324E-02    1.871E-02    8.508E-02    3.276E-02    5.226E-02 
  6.01    2.999E-02    1.671E-02    7.643E-02    2.854E-02    4.611E-02 
  6.08    2.700E-02    1.487E-02    6.846E-02    2.476E-02    4.055E-02 
  6.16    2.426E-02    1.319E-02    6.118E-02    2.142E-02    3.559E-02 
  6.24    2.178E-02    1.166E-02    5.459E-02    1.853E-02    3.123E-02 
  6.31    1.953E-02    1.031E-02    4.868E-02    1.606E-02    2.747E-02 
  6.39    1.752E-02    9.113E-03    4.344E-02    1.400E-02    2.428E-02 
  6.46    1.572E-02    8.074E-03    3.883E-02    1.232E-02    2.164E-02 
  6.54    1.412E-02    7.181E-03    3.481E-02    1.099E-02    1.952E-02 
  6.61    1.270E-02    6.424E-03    3.133E-02    9.978E-03    1.785E-02 
  6.69    1.145E-02    5.796E-03    2.832E-02    9.231E-03    1.658E-02 
  6.77    1.033E-02    5.272E-03    2.573E-02    8.707E-03    1.563E-02 
  6.84    9.345E-03    4.839E-03    2.347E-02    8.343E-03    1.493E-02 
  6.92    8.461E-03    4.470E-03    2.151E-02    8.083E-03    1.440E-02 
  6.99    7.673E-03    4.147E-03    1.977E-02    7.878E-03    1.395E-02 
  7.07    6.958E-03    3.848E-03    1.819E-02    7.673E-03    1.352E-02 
  7.14    6.306E-03    3.558E-03    1.674E-02    7.427E-03    1.305E-02 
  7.22    5.705E-03    3.263E-03    1.538E-02    7.122E-03    1.251E-02 
  7.29    5.153E-03    2.959E-03    1.410E-02    6.739E-03    1.188E-02 
  7.37    4.643E-03    2.646E-03    1.287E-02    6.288E-03    1.115E-02 
  7.45    4.169E-03    2.326E-03    1.171E-02    5.773E-03    1.035E-02 
  7.52    3.729E-03    2.004E-03    1.059E-02    5.212E-03    9.495E-03 
  7.60    3.322E-03    1.689E-03    9.532E-03    4.629E-03    8.607E-03 
  7.67    2.947E-03    1.386E-03    8.543E-03    4.044E-03    7.718E-03 
  7.75    2.605E-03    1.103E-03    7.627E-03    3.475E-03    6.857E-03 
  7.82    2.293E-03    8.466E-04    6.789E-03    2.940E-03    6.042E-03 
  7.90    2.012E-03    6.206E-04    6.028E-03    2.454E-03    5.294E-03 
  7.97    1.759E-03    4.263E-04    5.354E-03    2.025E-03    4.620E-03 
  8.05    1.533E-03    2.634E-04    4.752E-03    1.653E-03    4.022E-03 
  8.13    1.332E-03    1.294E-04    4.225E-03    1.335E-03    3.500E-03 
  8.20    1.153E-03    2.062E-05    3.760E-03    1.066E-03    3.045E-03 
  8.28    9.928E-04   -6.689E-05    3.349E-03    8.388E-04    2.647E-03 
  8.35    8.502E-04   -1.366E-04    2.987E-03    6.461E-04    2.300E-03 
  8.43    7.226E-04   -1.914E-04    2.665E-03    4.830E-04    1.995E-03 
  8.50    6.083E-04   -2.334E-04    2.379E-03    3.461E-04    1.729E-03 
  8.58    5.062E-04   -2.643E-04    2.126E-03    2.326E-04    1.498E-03 
  8.65    4.154E-04   -2.854E-04    1.901E-03    1.402E-04    1.298E-03 
  8.73    3.343E-04   -2.981E-04    1.703E-03    6.648E-05    1.126E-03 
  8.81    2.623E-04   -3.036E-04    1.528E-03    9.090E-06    9.805E-04 
  8.88    1.982E-04   -3.035E-04    1.373E-03   -3.459E-05    8.561E-04 
  8.96    1.412E-04   -2.988E-04    1.235E-03   -6.711E-05    7.500E-04 
  9.03    9.053E-05   -2.909E-04    1.112E-03   -9.090E-05    6.598E-04 
  9.11    4.544E-05   -2.806E-04    1.002E-03   -1.078E-04    5.818E-04 
  9.18    5.331E-06   -2.686E-04    9.031E-04   -1.195E-04    5.144E-04 
  9.26   -3.031E-05   -2.557E-04    8.138E-04   -1.270E-04    4.561E-04 
  9.34   -6.192E-05   -2.419E-04    7.331E-04   -1.311E-04    4.053E-04 
  9.41   -8.990E-05   -2.278E-04    6.598E-04   -1.325E-04    3.609E-04 
  9.49   -1.146E-04   -2.134E-04    5.937E-04   -1.317E-04    3.220E-04 
  9.56   -1.363E-04   -1.990E-04    5.335E-04   -1.291E-04    2.878E-04 
  9.64   -1.553E-04   -1.849E-04    4.793E-04   -1.252E-04    2.576E-04 
  9.71   -1.719E-04   -1.711E-04    4.298E-04   -1.203E-04    2.309E-04 
  9.79   -1.862E-04   -1.578E-04    3.846E-04   -1.149E-04    2.070E-04 
  9.86   -1.985E-04   -1.451E-04    3.433E-04   -1.092E-04    1.856E-04 
  9.94   -2.089E-04   -1.331E-04    3.054E-04   -1.033E-04    1.665E-04 
 10.02   -2.176E-04   -1.218E-04    2.706E-04   -9.741E-05    1.494E-04 
 10.09   -2.247E-04   -1.112E-04    2.385E-04   -9.163E-05    1.342E-04 
 10.17   -2.304E-04   -1.012E-04    2.089E-04   -8.589E-05    1.208E-04 
 10.24   -2.347E-04   -9.199E-05    1.817E-04   -8.037E-05    1.089E-04 
 10.32   -2.378E-04   -8.329E-05    1.566E-04   -7.500E-05    9.828E-05 
 10.39   -2.399E-04   -7.523E-05    1.337E-04   -6.985E-05    8.867E-05 
 10.47   -2.413E-04   -6.776E-05    1.127E-04   -6.497E-05    7.974E-05 
 10.54   -2.418E-04   -6.083E-05    9.368E-05   -6.042E-05    7.131E-05 
 10.62   -2.418E-04   -5.445E-05    7.646E-05   -5.609E-05    6.324E-05 
 10.70   -2.412E-04   -4.853E-05    6.092E-05   -5.212E-05    5.554E-05 
 10.77   -2.401E-04   -4.313E-05    4.693E-05   -4.839E-05    4.839E-05 
 10.85   -2.385E-04   -3.814E-05    3.438E-05   -4.493E-05    4.180E-05 
 10.92   -2.365E-04   -3.355E-05    2.311E-05   -4.168E-05    3.598E-05 
 11.00   -2.339E-04   -2.933E-05    1.298E-05   -3.863E-05    3.096E-05 
 11.07   -2.310E-04   -2.545E-05    3.867E-06   -3.573E-05    2.670E-05 
 11.15   -2.277E-04   -2.189E-05   -4.354E-06   -3.297E-05    2.306E-05 
 11.22   -2.241E-04   -1.861E-05   -1.179E-05   -3.031E-05    1.990E-05 
 11.30   -2.203E-04   -1.560E-05   -1.851E-05   -2.778E-05    1.706E-05 
 11.38   -2.164E-04   -1.285E-05   -2.458E-05   -2.538E-05    1.442E-05 
 11.45   -2.123E-04   -1.033E-05   -3.003E-05   -2.317E-05    1.194E-05 
 11.53   -2.082E-04   -8.028E-06   -3.487E-05   -2.120E-05    9.628E-06 
 11.60   -2.039E-04   -5.926E-06   -3.911E-05   -1.950E-05    7.513E-06 
 11.68   -1.997E-04   -4.016E-06   -4.276E-05   -1.812E-05    5.636E-06 
 11.75   -1.954E-04   -2.284E-06   -4.584E-05   -1.703E-05    4.013E-06 
 11.83   -1.910E-04   -7.212E-07   -4.839E-05   -1.620E-05    2.622E-06 
 11.91   -1.867E-04    6.793E-07   -5.044E-05   -1.553E-05    1.412E-06 
 11.98   -1.823E-04    1.924E-06   -5.208E-05   -1.494E-05    3.225E-07 
 12.06   -1.778E-04    3.019E-06   -5.335E-05   -1.435E-05   -7.040E-07 
 12.13   -1.734E-04    3.970E-06   -5.436E-05   -1.370E-05   -1.703E-06 
 12.21   -1.689E-04    4.782E-06   -5.509E-05   -1.299E-05   -2.678E-06 
 12.28   -1.645E-04    5.469E-06   -5.563E-05   -1.224E-05   -3.608E-06 
 12.36   -1.601E-04    6.033E-06   -5.604E-05   -1.150E-05   -4.458E-06 
 12.43   -1.557E-04    6.485E-06   -5.627E-05   -1.080E-05   -5.194E-06 
 12.51   -1.514E-04    6.849E-06   -5.641E-05   -1.018E-05   -5.787E-06 
 12.59   -1.471E-04    7.132E-06   -5.641E-05   -9.650E-06   -6.242E-06 
 12.66   -1.429E-04    7.364E-06   -5.627E-05   -9.204E-06   -6.566E-06 
 12.74   -1.388E-04    7.553E-06   -5.600E-05   -8.812E-06   -6.793E-06 
 12.81   -1.349E-04    7.722E-06   -5.559E-05   -8.452E-06   -6.953E-06 
 12.89   -1.309E-04    7.875E-06   -5.504E-05   -8.097E-06   -7.081E-06 
 12.96   -1.271E-04    8.014E-06   -5.436E-05   -7.737E-06   -7.213E-06 
 13.04   -1.233E-04    8.137E-06   -5.354E-05   -7.368E-06   -7.368E-06 
 13.11   -1.196E-04    8.235E-06   -5.258E-05   -6.985E-06   -7.559E-06 
 13.19   -1.160E-04    8.298E-06   -5.149E-05   -6.593E-06   -7.782E-06 
 13.27   -1.125E-04    8.318E-06   -5.035E-05   -6.201E-06   -8.019E-06 
 13.34   -1.091E-04    8.291E-06   -4.916E-05   -5.814E-06   -8.233E-06 
 13.42   -1.058E-04    8.210E-06   -4.798E-05   -5.436E-06   -8.370E-06 
 13.49   -1.025E-04    8.087E-06   -4.684E-05   -5.067E-06   -8.393E-06 
 13.57   -9.933E-05    7.925E-06   -4.575E-05   -4.716E-06   -8.265E-06 
 13.64   -9.623E-05    7.745E-06   -4.472E-05   -4.387E-06   -8.001E-06 
 13.72   -9.318E-05    7.557E-06   -4.370E-05   -4.091E-06   -7.641E-06 
 13.79   -9.026E-05    7.394E-06   -4.266E-05   -3.838E-06   -7.258E-06 
 13.87   -8.739E-05    7.268E-06   -4.154E-05   -3.635E-06   -6.930E-06 
 13.95   -8.466E-05    7.194E-06   -4.032E-05   -3.492E-06   -6.716E-06 
 14.02   -8.201E-05    7.173E-06   -3.900E-05   -3.409E-06   -6.639E-06 
 14.10   -7.946E-05    7.198E-06   -3.761E-05   -3.385E-06   -6.689E-06 
 14.17   -7.696E-05    7.244E-06   -3.623E-05   -3.411E-06   -6.812E-06 
 14.25   -7.445E-05    7.292E-06   -3.493E-05   -3.477E-06   -6.930E-06 
 14.32   -7.194E-05    7.317E-06   -3.378E-05   -3.569E-06   -6.976E-06 
 14.40   -6.948E-05    7.305E-06   -3.280E-05   -3.675E-06   -6.903E-06 
 14.48   -6.707E-05    7.251E-06   -3.198E-05   -3.780E-06   -6.702E-06 
 14.55   -6.465E-05    7.156E-06   -3.126E-05   -3.871E-06   -6.383E-06 
 14.63   -6.242E-05    7.026E-06   -3.056E-05   -3.937E-06   -5.992E-06 
 14.70   -6.028E-05    6.866E-06   -2.984E-05   -3.968E-06   -5.563E-06 
 14.78   -5.828E-05    6.678E-06   -2.905E-05   -3.953E-06   -5.149E-06 
 14.85   -5.641E-05    6.464E-06   -2.818E-05   -3.885E-06   -4.766E-06 
 14.93   -5.458E-05    6.220E-06   -2.726E-05   -3.759E-06   -4.439E-06 
 15.00   -5.285E-05    5.946E-06   -2.633E-05   -3.575E-06   -4.166E-06 
 15.08   -5.112E-05    5.645E-06   -2.546E-05   -3.340E-06   -3.943E-06 
 15.16   -4.939E-05    5.331E-06   -2.465E-05   -3.070E-06   -3.760E-06 
 15.23   -4.777E-05    5.012E-06   -2.388E-05   -2.788E-06   -3.604E-06 
 15.31   -4.618E-05    4.707E-06   -2.317E-05   -2.518E-06   -3.459E-06 
 15.38   -4.463E-05    4.427E-06   -2.250E-05   -2.278E-06   -3.316E-06 
 15.46   -4.314E-05    4.175E-06   -2.185E-05   -2.074E-06   -3.167E-06 
 15.53   -4.172E-05    3.954E-06   -2.119E-05   -1.896E-06   -3.013E-06 
 15.61   -4.037E-05    3.762E-06   -2.050E-05   -1.728E-06   -2.863E-06 
 15.68   -3.904E-05    3.596E-06   -1.978E-05   -1.551E-06   -2.733E-06 
 15.76   -3.782E-05    3.456E-06   -1.902E-05   -1.355E-06   -2.638E-06 
 15.84   -3.660E-05    3.337E-06   -1.825E-05   -1.146E-06   -2.590E-06 
 15.91   -3.544E-05    3.239E-06   -1.747E-05   -9.333E-07   -2.576E-06 
 15.99   -3.432E-05    3.158E-06   -1.670E-05   -7.325E-07   -2.575E-06 
 16.06   -3.326E-05    3.085E-06   -1.596E-05   -5.556E-07   -2.567E-06 
 16.14   -3.222E-05    3.011E-06   -1.529E-05   -4.109E-07   -2.533E-06 
 16.21   -3.122E-05    2.926E-06   -1.468E-05   -3.019E-07   -2.462E-06 
 16.29   -3.027E-05    2.822E-06   -1.415E-05   -2.282E-07   -2.350E-06 
 16.37   -2.935E-05    2.699E-06   -1.369E-05   -1.858E-07   -2.197E-06 
 16.44   -2.847E-05    2.559E-06   -1.330E-05   -1.677E-07   -2.013E-06 
 16.52   -2.763E-05    2.411E-06   -1.297E-05   -1.660E-07   -1.810E-06 
 16.59   -2.682E-05    2.263E-06   -1.267E-05   -1.731E-07   -1.599E-06 
 16.67   -2.604E-05    2.125E-06   -1.240E-05   -1.827E-07   -1.392E-06 
 16.74   -2.528E-05    1.999E-06   -1.214E-05   -1.908E-07   -1.196E-06 
 16.82   -2.455E-05    1.889E-06   -1.189E-05   -1.951E-07   -1.016E-06 
 16.89   -2.385E-05    1.794E-06   -1.164E-05   -1.950E-07   -8.516E-07 
 16.97   -2.318E-05    1.708E-06   -1.139E-05   -1.910E-07   -7.040E-07 
 17.05   -2.253E-05    1.630E-06   -1.114E-05   -1.838E-07   -5.714E-07 
 17.12   -2.190E-05    1.555E-06   -1.089E-05   -1.743E-07   -4.527E-07 
 17.20   -2.130E-05    1.480E-06   -1.065E-05   -1.630E-07   -3.464E-07 
 17.27   -2.072E-05    1.404E-06   -1.040E-05   -1.507E-07   -2.515E-07 
 17.35   -2.016E-05    1.326E-06   -1.015E-05   -1.378E-07   -1.670E-07 
 17.42   -1.962E-05    1.247E-06   -9.903E-06   -1.246E-07   -9.204E-08 
 17.50   -1.910E-05    1.167E-06   -9.656E-06   -1.113E-07   -2.592E-08 
 17.57   -1.860E-05    1.088E-06   -9.409E-06   -9.820E-08    3.209E-08 
 17.65   -1.811E-05    1.010E-06   -9.166E-06   -8.529E-08    8.262E-08 
 17.73   -1.763E-05    9.355E-07   -8.925E-06   -7.240E-08    1.263E-07 
 17.80   -1.717E-05    8.625E-07   -8.685E-06   -6.017E-08    1.637E-07 
 17.88   -1.672E-05    7.987E-07   -8.448E-06   -4.820E-08    1.954E-07 
 17.95   -1.629E-05    7.399E-07   -8.217E-06   -3.649E-08    2.219E-07 
 18.03   -1.586E-05    6.857E-07   -7.986E-06   -2.500E-08    2.439E-07 
 18.10   -1.545E-05    6.370E-07   -7.762E-06   -1.371E-08    2.619E-07 
 18.18   -1.504E-05    5.928E-07   -7.544E-06   -2.617E-09    2.764E-07 
 18.25   -1.465E-05    5.536E-07   -7.330E-06    8.310E-09    2.882E-07 
 18.33   -1.426E-05    5.185E-07   -7.122E-06    1.908E-08    2.976E-07 
 18.41   -1.388E-05    4.871E-07   -6.917E-06    2.969E-08    3.053E-07 
 18.48   -1.352E-05    4.584E-07   -6.722E-06    4.014E-08    3.118E-07 
 18.56   -1.317E-05    4.321E-07   -6.534E-06    5.043E-08    3.173E-07 
 18.63   -1.282E-05    4.076E-07   -6.352E-06    6.053E-08    3.225E-07 
 18.71   -1.249E-05    3.844E-07   -6.173E-06    7.041E-08    3.275E-07 
 18.78   -1.217E-05    3.620E-07   -6.004E-06    8.005E-08    3.326E-07 
 18.86   -1.186E-05    3.400E-07   -5.842E-06    8.939E-08    3.382E-07 
 18.94   -1.155E-05    3.181E-07   -5.686E-06    9.838E-08    3.443E-07 
 19.01   -1.126E-05    2.961E-07   -5.536E-06    1.070E-07    3.510E-07 
 19.09   -1.098E-05    2.741E-07   -5.390E-06    1.150E-07    3.584E-07 
 19.16   -1.070E-05    2.520E-07   -5.254E-06    1.226E-07    3.664E-07 
 19.24   -1.044E-05    2.299E-07   -5.117E-06    1.295E-07    3.750E-07 
 19.31   -1.019E-05    2.080E-07   -4.991E-06    1.357E-07    3.841E-07 
 19.39   -9.938E-06    1.864E-07   -4.864E-06    1.411E-07    3.934E-07 
 19.46   -9.700E-06    1.653E-07   -4.744E-06    1.457E-07    4.030E-07 
 19.54   -9.468E-06    1.447E-07   -4.627E-06    1.495E-07    4.125E-07 
 19.62   -9.243E-06    1.248E-07   -4.513E-06    1.524E-07    4.217E-07 
 19.69   -9.025E-06    1.057E-07   -4.399E-06    1.545E-07    4.305E-07 
 19.77   -8.810E-06    8.735E-08   -4.292E-06    1.557E-07    4.386E-07 
 19.84   -8.606E-06    6.973E-08   -4.185E-06    1.560E-07    4.458E-07 
 19.92   -8.404E-06    5.271E-08   -4.081E-06    1.557E-07    4.519E-07 
 19.99   -8.206E-06    3.613E-08   -3.977E-06    1.546E-07    4.565E-07 
 20.07   -8.014E-06    1.977E-08   -3.876E-06    1.529E-07    4.593E-07 
 20.14   -7.825E-06    3.410E-09   -3.775E-06    1.508E-07    4.606E-07 
 20.22   -7.643E-06   -1.318E-08   -3.678E-06    1.483E-07    4.597E-07 
 20.30   -7.465E-06   -3.018E-08   -3.584E-06    1.456E-07    4.570E-07 
 20.37   -7.286E-06   -4.771E-08   -3.490E-06    1.428E-07    4.522E-07 
 20.45   -7.114E-06   -6.583E-08   -3.395E-06    1.400E-07    4.453E-07 
 20.52   -6.949E-06   -8.454E-08   -3.308E-06    1.375E-07    4.365E-07 
 20.60   -6.784E-06   -1.037E-07   -3.219E-06    1.354E-07    4.260E-07 
 20.67   -6.622E-06   -1.231E-07   -3.134E-06    1.339E-07    4.142E-07 
 20.75   -6.466E-06   -1.423E-07   -3.052E-06    1.331E-07    4.015E-07 
 20.82   -6.311E-06   -1.610E-07   -2.973E-06    1.331E-07    3.883E-07 
 20.90   -6.162E-06   -1.784E-07   -2.897E-06    1.343E-07    3.754E-07 
 20.98   -6.020E-06   -1.940E-07   -2.825E-06    1.367E-07    3.633E-07 
 21.05   -5.878E-06   -2.069E-07   -2.757E-06    1.404E-07    3.528E-07 
 21.13   -5.746E-06   -2.165E-07   -2.693E-06    1.457E-07    3.447E-07 
 21.20   -5.613E-06   -2.221E-07   -2.634E-06    1.526E-07    3.395E-07 
 21.28   -5.491E-06   -2.230E-07   -2.579E-06    1.612E-07    3.378E-07 
 21.35   -5.372E-06   -2.189E-07   -2.529E-06    1.716E-07    3.401E-07 
 21.43   -5.257E-06   -2.095E-07   -2.484E-06    1.836E-07    3.466E-07 
 21.51   -5.147E-06   -1.946E-07   -2.443E-06    1.973E-07    3.575E-07 
 21.58   -5.045E-06   -1.744E-07   -2.406E-06    2.125E-07    3.728E-07 
 21.66   -4.946E-06   -1.493E-07   -2.374E-06    2.291E-07    3.920E-07 
 21.73   -4.850E-06   -1.198E-07   -2.345E-06    2.469E-07    4.148E-07 
 21.81   -4.760E-06   -8.680E-08   -2.320E-06    2.656E-07    4.405E-07 
 21.88   -4.675E-06   -5.147E-08   -2.296E-06    2.848E-07    4.679E-07 
 21.96   -4.589E-06   -1.509E-08   -2.275E-06    3.043E-07    4.962E-07 
 22.03   -4.509E-06    2.093E-08   -2.254E-06    3.235E-07    5.244E-07 
 22.11   -4.427E-06    5.516E-08   -2.233E-06    3.422E-07    5.509E-07 
 22.19   -4.351E-06    8.622E-08   -2.212E-06    3.599E-07    5.741E-07 
 22.26   -4.271E-06    1.128E-07   -2.189E-06    3.762E-07    5.941E-07 
 22.34   -4.192E-06    1.339E-07   -2.164E-06    3.906E-07    6.092E-07 
 22.41   -4.113E-06    1.485E-07   -2.136E-06    4.030E-07    6.183E-07 
 22.49   -4.033E-06    1.561E-07   -2.105E-06    4.128E-07    6.219E-07 
 22.56   -3.951E-06    1.562E-07   -2.071E-06    4.199E-07    6.192E-07 
 22.64   -3.871E-06    1.488E-07   -2.033E-06    4.239E-07    6.101E-07 
 22.71   -3.785E-06    1.343E-07   -1.992E-06    4.248E-07    5.946E-07 
 22.79   -3.703E-06    1.134E-07   -1.947E-06    4.223E-07    5.741E-07 
 22.87   -3.617E-06    8.697E-08   -1.899E-06    4.164E-07    5.490E-07 
 22.94   -3.534E-06    5.638E-08   -1.849E-06    4.070E-07    5.208E-07 
 23.02   -3.451E-06    2.300E-08   -1.797E-06    3.942E-07    4.903E-07 
 23.09   -3.369E-06   -1.170E-08   -1.744E-06    3.781E-07    4.593E-07 
 23.17   -3.287E-06   -4.625E-08   -1.690E-06    3.588E-07    4.284E-07 
 23.24   -3.209E-06   -7.925E-08   -1.636E-06    3.366E-07    3.993E-07 
 23.32   -3.134E-06   -1.094E-07   -1.582E-06    3.118E-07    3.729E-07 
 23.39   -3.062E-06   -1.357E-07   -1.530E-06    2.846E-07    3.503E-07 
 23.47   -2.994E-06   -1.572E-07   -1.479E-06    2.556E-07    3.321E-07 
 23.55   -2.929E-06   -1.732E-07   -1.431E-06    2.251E-07    3.188E-07 
 23.62   -2.868E-06   -1.836E-07   -1.385E-06    1.938E-07    3.107E-07 
 23.70   -2.811E-06   -1.882E-07   -1.342E-06    1.623E-07    3.077E-07 
 23.77   -2.757E-06   -1.874E-07   -1.301E-06    1.311E-07    3.095E-07 
 23.85   -2.707E-06   -1.819E-07   -1.264E-06    1.011E-07    3.153E-07 
 23.92   -2.659E-06   -1.725E-07   -1.229E-06    7.280E-08    3.244E-07 
 24.00   -2.614E-06   -1.600E-07   -1.198E-06    4.698E-08    3.360E-07 
 24.08   -2.571E-06   -1.456E-07   -1.169E-06    2.422E-08    3.489E-07 
 24.15   -2.529E-06   -1.303E-07   -1.143E-06    5.054E-09    3.624E-07 
 24.23   -2.488E-06   -1.150E-07   -1.119E-06   -1.007E-08    3.753E-07 
 24.30   -2.448E-06   -1.008E-07   -1.097E-06   -2.082E-08    3.869E-07 
 24.38   -2.408E-06   -8.849E-08   -1.076E-06   -2.697E-08    3.963E-07 
 24.45   -2.367E-06   -7.866E-08   -1.057E-06   -2.846E-08    4.030E-07 
 24.53   -2.326E-06   -7.184E-08   -1.040E-06   -2.535E-08    4.066E-07 
 24.60   -2.285E-06   -6.830E-08   -1.023E-06   -1.786E-08    4.068E-07 
 24.68   -2.243E-06   -6.807E-08   -1.008E-06   -6.403E-09    4.035E-07 
 24.76   -2.200E-06   -7.099E-08   -9.929E-07    8.493E-09    3.971E-07 
 24.83   -2.157E-06   -7.668E-08   -9.783E-07    2.618E-08    3.877E-07 
 24.91   -2.114E-06   -8.468E-08   -9.640E-07    4.595E-08    3.761E-07 
 24.98   -2.071E-06   -9.440E-08   -9.504E-07    6.704E-08    3.626E-07 
 25.06   -2.029E-06   -1.052E-07   -9.364E-07    8.870E-08    3.479E-07 
 25.13   -1.987E-06   -1.165E-07   -9.224E-07    1.102E-07    3.326E-07 
 25.21   -1.946E-06   -1.277E-07   -9.088E-07    1.309E-07    3.174E-07 
 25.28   -1.906E-06   -1.381E-07   -8.945E-07    1.501E-07    3.029E-07 
 25.36   -1.867E-06   -1.473E-07   -8.802E-07    1.674E-07    2.894E-07 
 25.44   -1.830E-06   -1.548E-07   -8.659E-07    1.824E-07    2.775E-07 
 25.51   -1.794E-06   -1.603E-07   -8.513E-07    1.948E-07    2.674E-07 
 25.59   -1.760E-06   -1.637E-07   -8.363E-07    2.044E-07    2.595E-07 
 25.66   -1.728E-06   -1.649E-07   -8.211E-07    2.113E-07    2.536E-07 
 25.74   -1.698E-06   -1.640E-07   -8.055E-07    2.157E-07    2.499E-07 
 25.81   -1.668E-06   -1.611E-07   -7.898E-07    2.178E-07    2.481E-07 
 25.89   -1.641E-06   -1.565E-07   -7.739E-07    2.179E-07    2.480E-07 
 25.96   -1.614E-06   -1.505E-07   -7.580E-07    2.164E-07    2.495E-07 
